X,Y,Theta,Time
1.000000000000000021e-03,0.000000000000000000e+00,6.283185307179639523e-03,0.000000000000000000e+00
1.999980260856137199e-03,6.283143965559004644e-06,1.256637061435927905e-02,1.000000000000000021e-02
2.999901305059953123e-03,1.884918384891171974e-05,1.884955592153891857e-02,2.000000000000000042e-02
3.999723657440761720e-03,3.769762356432005399e-05,2.513274122871855809e-02,2.999999999999999889e-02
4.999407846724061508e-03,6.282771900765774724e-05,3.141592653589819761e-02,4.000000000000000083e-02
5.998914407089793455e-03,9.423847808578630653e-05,3.769911184307783714e-02,5.000000000000000278e-02
6.998203879730382874e-03,1.319286607557211490e-04,4.398229715025747666e-02,6.000000000000000472e-02
7.997236814408507227e-03,1.758967790735864434e-04,5.026548245743711618e-02,7.000000000000000666e-02
8.995973771014523918e-03,2.261410972533564254e-04,5.654866776461675570e-02,8.000000000000000167e-02
9.994375321123499106e-03,2.826596317353814464e-04,6.283185307179639523e-02,8.999999999999999667e-02
1.099240204955177075e-02,3.454501512646953438e-04,6.911503837897603475e-02,9.999999999999999167e-02
1.199001455591299642e-02,4.145101769791017165e-04,7.539822368615567427e-02,1.099999999999999867e-01
1.298717345617361046e-02,4.898369825070350439e-04,8.168140899333531380e-02,1.199999999999999817e-01
1.398383938420764104e-02,5.714275940751933382e-04,8.796459430051495332e-02,1.299999999999999767e-01
1.497997299335081418e-02,6.592787906259372360e-04,9.424777960769459284e-02,1.399999999999999856e-01
1.597553495795389286e-02,7.533871039444523313e-04,1.005309649148742324e-01,1.499999999999999944e-01
1.697048597493519204e-02,8.537488187956680796e-04,1.068141502220538719e-01,1.600000000000000033e-01
1.796478676533218993e-02,9.603599730709288856e-04,1.130973355292335114e-01,1.700000000000000122e-01
1.895839807585219736e-02,1.073216357944411625e-03,1.193805208364131509e-01,1.800000000000000211e-01
1.995128068042201219e-02,1.192313518039282445e-03,1.256637061435927905e-01,1.900000000000000300e-01
2.094339538173648971e-02,1.317646751603587752e-03,1.319468914507724300e-01,2.000000000000000389e-01
2.193470301280599569e-02,1.449211110695871468e-03,1.382300767579520695e-01,2.100000000000000477e-01
2.292516443850264526e-02,1.587001401380510636e-03,1.445132620651317090e-01,2.200000000000000566e-01
2.391474055710529623e-02,1.731012183932764074e-03,1.507964473723113485e-01,2.300000000000000655e-01
2.490339230184321004e-02,1.881237773053522468e-03,1.570796326794909881e-01,2.400000000000000744e-01
2.589108064243834939e-02,2.037672238093754702e-03,1.633628179866706276e-01,2.500000000000000555e-01
2.687776658664621857e-02,2.200309403288639581e-03,1.696460032938502671e-01,2.600000000000000644e-01
2.786341118179521542e-02,2.369142848001374712e-03,1.759291886010299066e-01,2.700000000000000733e-01
2.884797551632442211e-02,2.544165906976652344e-03,1.822123739082095462e-01,2.800000000000000822e-01
2.983142072131975131e-02,2.725371670603791117e-03,1.884955592153891857e-01,2.900000000000000910e-01
3.081370797204844095e-02,2.912752985189517429e-03,1.947787445225688252e-01,3.000000000000000999e-01
3.179479848949177262e-02,3.106302453240379277e-03,2.010619298297484647e-01,3.100000000000001088e-01
3.277465354187601709e-02,3.306012433754787830e-03,2.073451151369281042e-01,3.200000000000001177e-01
3.375323444620148550e-02,3.511875042524671090e-03,2.136283004441077438e-01,3.300000000000001266e-01
3.473050256976967926e-02,3.723882152446727524e-03,2.199114857512873833e-01,3.400000000000001354e-01
3.570641933170842774e-02,3.942025393843272274e-03,2.261946710584670228e-01,3.500000000000001443e-01
3.668094620449500326e-02,4.166296154792655144e-03,2.324778563656466623e-01,3.600000000000001532e-01
3.765404471547712656e-02,4.396685581469247754e-03,2.387610416728263019e-01,3.700000000000001621e-01
3.862567644839180053e-02,4.633184578492974270e-03,2.450442269800059414e-01,3.800000000000001710e-01
3.959580304488190261e-02,4.875783809288383557e-03,2.513274122871855809e-01,3.900000000000001799e-01
4.056438620601053591e-02,5.124473696453240613e-03,2.576105975943652204e-01,4.000000000000001887e-01
4.153138769377297257e-02,5.379244422136625174e-03,2.638937829015448600e-01,4.100000000000001976e-01
4.249676933260624484e-02,5.640085928426524439e-03,2.701769682087244995e-01,4.200000000000002065e-01
4.346049301089625200e-02,5.906987917746902607e-03,2.764601535159041390e-01,4.300000000000002154e-01
4.442252068248233460e-02,6.179939853264229850e-03,2.827433388230837785e-01,4.400000000000002243e-01
4.538281436815927439e-02,6.458930959303461200e-03,2.890265241302634180e-01,4.500000000000002331e-01
4.634133615717665050e-02,6.743950221773439314e-03,2.953097094374430576e-01,4.600000000000002420e-01
4.729804820873548254e-02,7.034986388601713325e-03,3.015928947446226971e-01,4.700000000000002509e-01
4.825291275348212588e-02,7.332027970178750347e-03,3.078760800518023366e-01,4.800000000000002598e-01
4.920589209499934280e-02,7.635063239811526632e-03,3.141592653589819761e-01,4.900000000000002687e-01
5.015694861129449400e-02,7.944080234186476699e-03,3.204424506661616157e-01,5.000000000000002220e-01
5.110604475628478804e-02,8.259066753841784805e-03,3.267256359733412552e-01,5.100000000000002309e-01
5.205314306127953317e-02,8.580010363648997093e-03,3.330088212805208947e-01,5.200000000000002398e-01
5.299820613645933598e-02,8.906898393303941397e-03,3.392920065877005342e-01,5.300000000000002487e-01
5.394119667235219850e-02,9.239717937826930419e-03,3.455751918948801737e-01,5.400000000000002576e-01
5.488207744130642329e-02,9.578455858072223994e-03,3.518583772020598133e-01,5.500000000000002665e-01
5.582081129896029892e-02,9.923098781246744368e-03,3.581415625092394528e-01,5.600000000000002753e-01
5.675736118570848948e-02,1.027363310143800633e-02,3.644247478164190923e-01,5.700000000000002842e-01
5.769169012816510039e-02,1.063004498015126045e-02,3.707079331235987318e-01,5.800000000000002931e-01
5.862376124062330940e-02,1.099232034685580957e-02,3.769911184307783714e-01,5.900000000000003020e-01
5.955353772651156286e-02,1.136044489954048976e-02,3.832743037379580109e-01,6.000000000000003109e-01
6.048098287984622623e-02,1.173440410527829339e-02,3.895574890451376504e-01,6.100000000000003197e-01
6.140606008668068189e-02,1.211418320080009763e-02,3.958406743523172899e-01,6.200000000000003286e-01
6.232873282655079783e-02,1.249976719307749687e-02,4.021238596594969295e-01,6.300000000000003375e-01
6.324896467391666333e-02,1.289114085991470253e-02,4.084070449666765690e-01,6.400000000000003464e-01
6.416671929960064691e-02,1.328828875054948594e-02,4.146902302738562085e-01,6.500000000000003553e-01
6.508196047222156166e-02,1.369119518626315223e-02,4.209734155810358480e-01,6.600000000000003642e-01
6.599465205962506964e-02,1.409984426099950526e-02,4.272566008882154875e-01,6.700000000000003730e-01
6.690475803031006863e-02,1.451421984199279328e-02,4.335397861953951271e-01,6.800000000000003819e-01
6.781224245485117930e-02,1.493430557040460217e-02,4.398229715025747666e-01,6.900000000000003908e-01
6.871706950731719388e-02,1.536008486196967747e-02,4.461061568097544061e-01,7.000000000000003997e-01
6.961920346668538928e-02,1.579154090765063842e-02,4.523893421169340456e-01,7.100000000000004086e-01
7.051860871825176014e-02,1.622865667430157394e-02,4.586725274241136852e-01,7.200000000000004174e-01
7.141524975503699135e-02,1.667141490534047865e-02,4.649557127312933247e-01,7.300000000000004263e-01
7.230909117918825346e-02,1.711979812143051352e-02,4.712388980384729642e-01,7.400000000000004352e-01
7.320009770337662647e-02,1.757378862117006321e-02,4.775220833456526037e-01,7.500000000000004441e-01
7.408823415219016606e-02,1.803336848179155558e-02,4.838052686528322432e-01,7.600000000000004530e-01
7.497346546352262608e-02,1.849851955986901719e-02,4.900884539600118828e-01,7.700000000000004619e-01
7.585575668995757359e-02,1.896922349203435457e-02,4.963716392671915223e-01,7.800000000000004707e-01
7.673507300014813237e-02,1.944546169570229854e-02,5.026548245743711618e-01,7.900000000000004796e-01
7.761137968019199418e-02,1.992721536980401886e-02,5.089380098815508013e-01,8.000000000000004885e-01
7.848464213500190578e-02,2.041446549552935336e-02,5.152211951887304409e-01,8.100000000000004974e-01
7.935482588967142370e-02,2.090719283707764831e-02,5.215043804959100804e-01,8.200000000000005063e-01
8.022189659083590885e-02,2.140537794241714406e-02,5.277875658030897199e-01,8.300000000000005151e-01
8.108582000802874723e-02,2.190900114405290935e-02,5.340707511102693594e-01,8.400000000000005240e-01
8.194656203503268566e-02,2.241804255980328620e-02,5.403539364174489990e-01,8.500000000000005329e-01
8.280408869122633797e-02,2.293248209358479672e-02,5.466371217246286385e-01,8.600000000000005418e-01
8.365836612292562591e-02,2.345229943620550858e-02,5.529203070318082780e-01,8.700000000000005507e-01
8.450936060472032108e-02,2.397747406616680677e-02,5.592034923389879175e-01,8.800000000000005596e-01
8.535703854080539665e-02,2.450798525047354418e-02,5.654866776461675570e-01,8.900000000000005684e-01
8.620136646630741084e-02,2.504381204545254314e-02,5.717698629533471966e-01,9.000000000000005773e-01
8.704231104860557511e-02,2.558493329757942358e-02,5.780530482605268361e-01,9.100000000000005862e-01
8.787983908864771543e-02,2.613132764431369548e-02,5.843362335677064756e-01,9.200000000000005951e-01
8.871391752226089056e-02,2.668297351494212932e-02,5.906194188748861151e-01,9.300000000000006040e-01
8.954451342145669512e-02,2.723984913143032149e-02,5.969026041820657547e-01,9.400000000000006128e-01
9.037159399573124752e-02,2.780193250928245791e-02,6.031857894892453942e-01,9.500000000000006217e-01
9.119512659335966831e-02,2.836920145840921698e-02,6.094689747964250337e-01,9.600000000000006306e-01
9.201507870268511857e-02,2.894163358400381192e-02,6.157521601036046732e-01,9.700000000000006395e-01
9.283141795340230096e-02,2.951920628742608216e-02,6.220353454107843127e-01,9.800000000000006484e-01
9.364411211783539579e-02,3.010189676709466161e-02,6.283185307179639523e-01,9.900000000000006573e-01
9.445312911221033503e-02,3.068968201938714058e-02,6.346017160251435918e-01,1.000000000000000666e+00
9.525843699792145569e-02,3.128253883954820735e-02,6.408849013323232313e-01,1.010000000000000675e+00
9.606000398279232466e-02,3.188044382260572795e-02,6.471680866395028708e-01,1.020000000000000684e+00
9.685779842233088743e-02,3.248337336429475697e-02,6.534512719466825104e-01,1.030000000000000693e+00
9.765178882097871882e-02,3.309130366198936857e-02,6.597344572538621499e-01,1.040000000000000702e+00
9.844194383335440335e-02,3.370421071564234927e-02,6.660176425610417894e-01,1.050000000000000711e+00
9.922823226549101761e-02,3.432207032873269004e-02,6.723008278682214289e-01,1.060000000000000719e+00
1.000106230760676035e-01,3.494485810922080826e-02,6.785840131754010685e-01,1.070000000000000728e+00
1.007890853776346185e-01,3.557254947051151361e-02,6.848671984825807080e-01,1.080000000000000737e+00
1.015635884378333492e-01,3.620511963242464132e-02,6.911503837897603475e-01,1.090000000000000746e+00
1.023341016806091353e-01,3.684254362217333212e-02,6.974335690969399870e-01,1.100000000000000755e+00
1.031005946874184870e-01,3.748479627534992420e-02,7.037167544041196265e-01,1.110000000000000764e+00
1.038630371984299305e-01,3.813185223691937381e-02,7.099999397112992661e-01,1.120000000000000773e+00
1.046213991137186494e-01,3.878368596222026010e-02,7.162831250184789056e-01,1.130000000000000782e+00
1.053756504944547562e-01,3.944027171797322151e-02,7.225663103256585451e-01,1.140000000000000790e+00
1.061257615640852081e-01,4.010158358329687922e-02,7.288494956328381846e-01,1.150000000000000799e+00
1.068717027095093808e-01,4.076759545073113666e-02,7.351326809400178242e-01,1.160000000000000808e+00
1.076134444822481190e-01,4.143828102726786200e-02,7.414158662471974637e-01,1.170000000000000817e+00
1.083509575996062929e-01,4.211361383538889114e-02,7.476990515543771032e-01,1.180000000000000826e+00
1.090842129458288456e-01,4.279356721411131659e-02,7.539822368615567427e-01,1.190000000000000835e+00
1.098131815732502486e-01,4.347811432004000665e-02,7.602654221687363822e-01,1.200000000000000844e+00
1.105378347034372960e-01,4.416722812842736184e-02,7.665486074759160218e-01,1.210000000000000853e+00
1.112581437283251956e-01,4.486088143424016988e-02,7.728317927830956613e-01,1.220000000000000862e+00
1.119740802113470268e-01,4.555904685323364928e-02,7.791149780902753008e-01,1.230000000000000870e+00
1.126856158885563008e-01,4.626169682303250125e-02,7.853981633974549403e-01,1.240000000000000879e+00
1.133927226697428459e-01,4.696880360421905320e-02,7.916813487046345799e-01,1.250000000000000888e+00
1.140953726395416840e-01,4.768033928142834110e-02,7.979645340118142194e-01,1.260000000000000897e+00
1.147935380585351495e-01,4.839627576445017926e-02,8.042477193189938589e-01,1.270000000000000906e+00
1.154871913643479436e-01,4.911658478933809274e-02,8.105309046261734984e-01,1.280000000000000915e+00
1.161763051727352919e-01,4.984123791952514704e-02,8.168140899333531380e-01,1.290000000000000924e+00
1.168608522786639820e-01,5.057020654694656392e-02,8.230972752405327775e-01,1.300000000000000933e+00
1.175408056573863935e-01,5.130346189316913053e-02,8.293804605477124170e-01,1.310000000000000941e+00
1.182161384655074088e-01,5.204097501052731140e-02,8.356636458548920565e-01,1.320000000000000950e+00
1.188868240420441202e-01,5.278271678326605654e-02,8.419468311620716960e-01,1.330000000000000959e+00
1.195528359094783638e-01,5.352865792869024308e-02,8.482300164692513356e-01,1.340000000000000968e+00
1.202141477748020076e-01,5.427876899832070889e-02,8.545132017764309751e-01,1.350000000000000977e+00
1.208707335305549552e-01,5.503302037905681565e-02,8.607963870836101705e-01,1.360000000000000986e+00
1.215225672558558345e-01,5.579138229434554147e-02,8.670795723907893660e-01,1.370000000000000995e+00
1.221696232174252772e-01,5.655382480535699197e-02,8.733627576979685614e-01,1.380000000000001004e+00
1.228118758706018554e-01,5.732031781216634370e-02,8.796459430051477568e-01,1.390000000000001013e+00
1.234492998603505393e-01,5.809083105494213667e-02,8.859291283123269523e-01,1.400000000000001021e+00
1.240818700222636600e-01,5.886533411514087433e-02,8.922123136195061477e-01,1.410000000000001030e+00
1.247095613835543515e-01,5.964379641670790322e-02,8.984954989266853431e-01,1.420000000000001039e+00
1.253323491640424558e-01,6.042618722728449604e-02,9.047786842338645386e-01,1.430000000000001048e+00
1.259502087771327827e-01,6.121247565942111724e-02,9.110618695410437340e-01,1.440000000000001057e+00
1.265631158307857496e-01,6.200263067179680870e-02,9.173450548482229294e-01,1.450000000000001066e+00
1.271710461284803473e-01,6.279662107044464703e-02,9.236282401554021249e-01,1.460000000000001075e+00
1.277739756701693763e-01,6.359441550998322368e-02,9.299114254625813203e-01,1.470000000000001084e+00
1.283718806532268830e-01,6.439598249485410653e-02,9.361946107697605157e-01,1.480000000000001092e+00
1.289647374733879359e-01,6.520129038056522719e-02,9.424777960769397112e-01,1.490000000000001101e+00
1.295525227256804079e-01,6.601030737494018030e-02,9.487609813841189066e-01,1.500000000000001110e+00
1.301352132053489874e-01,6.682300153937327514e-02,9.550441666912981020e-01,1.510000000000001119e+00
1.307127859087712507e-01,6.763934079009045752e-02,9.613273519984772975e-01,1.520000000000001128e+00
1.312852180343658526e-01,6.845929289941590778e-02,9.676105373056564929e-01,1.530000000000001137e+00
1.318524869834926116e-01,6.928282549704432858e-02,9.738937226128356883e-01,1.540000000000001146e+00
1.324145703613447411e-01,7.010990607131889485e-02,9.801769079200148838e-01,1.550000000000001155e+00
1.329714459778329194e-01,7.094050197051471329e-02,9.864600932271940792e-01,1.560000000000001164e+00
1.335230918484613394e-01,7.177458040412788842e-02,9.927432785343732746e-01,1.570000000000001172e+00
1.340694861951955974e-01,7.261210844417002874e-02,9.990264638415524701e-01,1.580000000000001181e+00
1.346106074473224778e-01,7.345305302646819301e-02,1.005309649148731665e+00,1.590000000000001190e+00
1.351464342423014664e-01,7.429738095197020720e-02,1.011592834455910861e+00,1.600000000000001199e+00
1.356769454266082142e-01,7.514505888805528278e-02,1.017876019763090056e+00,1.610000000000001208e+00
1.362021200565695089e-01,7.599605336984997794e-02,1.024159205070269252e+00,1.620000000000001217e+00
1.367219373991902243e-01,7.685033080154926588e-02,1.030442390377448447e+00,1.630000000000001226e+00
1.372363769329717209e-01,7.770785745774291819e-02,1.036725575684627643e+00,1.640000000000001235e+00
1.377454183487220873e-01,7.856859948474685662e-02,1.043008760991806838e+00,1.650000000000001243e+00
1.382490415503578596e-01,7.943252290193969500e-02,1.049291946298986034e+00,1.660000000000001252e+00
1.387472266556973588e-01,8.029959360310418015e-02,1.055575131606165229e+00,1.670000000000001261e+00
1.392399539972456468e-01,8.116977735777369807e-02,1.061858316913344424e+00,1.680000000000001270e+00
1.397272041229709882e-01,8.204303981258360967e-02,1.068141502220523620e+00,1.690000000000001279e+00
1.402089577970727086e-01,8.291934649262747148e-02,1.074424687527702815e+00,1.700000000000001288e+00
1.406851960007406421e-01,8.379866280281803026e-02,1.080707872834882011e+00,1.710000000000001297e+00
1.411558999329059760e-01,8.468095402925297777e-02,1.086991058142061206e+00,1.720000000000001306e+00
1.416210510109834342e-01,8.556618534058542391e-02,1.093274243449240402e+00,1.730000000000001315e+00
1.420806308716049404e-01,8.645432178939896350e-02,1.099557428756419597e+00,1.740000000000001323e+00
1.425346213713444832e-01,8.734532831358732263e-02,1.105840614063598792e+00,1.750000000000001332e+00
1.429830045874345146e-01,8.823916973773858474e-02,1.112123799370777988e+00,1.760000000000001341e+00
1.434257628184734124e-01,8.913581077452381596e-02,1.118406984677957183e+00,1.770000000000001350e+00
1.438628785851243652e-01,9.003521602609018681e-02,1.124690169985136379e+00,1.780000000000001359e+00
1.442943346308053210e-01,9.093734998545838222e-02,1.130973355292315574e+00,1.790000000000001368e+00
1.447201139223704136e-01,9.184217703792439680e-02,1.137256540599494770e+00,1.800000000000001377e+00
1.451401996507822312e-01,9.274966146246550747e-02,1.143539725906673965e+00,1.810000000000001386e+00
1.455545752317755348e-01,9.365976743315049258e-02,1.149822911213853160e+00,1.820000000000001394e+00
1.459632243065119017e-01,9.457245902055398667e-02,1.156106096521032356e+00,1.830000000000001403e+00
1.463661307422255697e-01,9.548770019317490143e-02,1.162389281828211551e+00,1.840000000000001412e+00
1.467632786328603722e-01,9.640545481885887114e-02,1.168672467135390747e+00,1.850000000000001421e+00
1.471546522996975970e-01,9.732568666622473663e-02,1.174955652442569942e+00,1.860000000000001430e+00
1.475402362919750188e-01,9.824835940609484564e-02,1.181238837749749138e+00,1.870000000000001439e+00
1.479200153874968282e-01,9.917343661292929435e-02,1.187522023056928333e+00,1.880000000000001448e+00
1.482939745932346509e-01,1.001008817662639439e-01,1.193805208364107528e+00,1.890000000000001457e+00
1.486620991459193519e-01,1.010306582521521834e-01,1.200088393671286724e+00,1.900000000000001465e+00
1.490243745126239028e-01,1.019627293646103855e-01,1.206371578978465919e+00,1.910000000000001474e+00
1.493807863913371725e-01,1.028970583070669964e-01,1.212654764285645115e+00,1.920000000000001483e+00
1.497313207115284484e-01,1.038336081938151800e-01,1.218937949592824310e+00,1.930000000000001492e+00
1.500759636347029913e-01,1.047723420514690557e-01,1.225221134900003506e+00,1.940000000000001501e+00
1.504147015549482935e-01,1.057132228204232804e-01,1.231504320207182701e+00,1.950000000000001510e+00
1.507475210994712878e-01,1.066562133563161430e-01,1.237787505514361897e+00,1.960000000000001519e+00
1.510744091291262581e-01,1.076012764314959458e-01,1.244070690821541092e+00,1.970000000000001528e+00
1.513953527389334808e-01,1.085483747364906909e-01,1.250353876128720287e+00,1.980000000000001537e+00
